frequency[MHz] Vratio_port0 Vratio_port1 Vratio_port2
30.00 2.831 2.831 2.831
31.00 1.853 1.853 1.853
32.00 4.841 4.841 4.841
33.00 8.838 8.838 8.838
34.00 13.744 13.744 13.744
35.00 19.982 19.982 19.982
36.00 28.498 28.498 28.498
37.00 35.187 35.187 35.187
38.00 26.024 26.024 26.024
39.00 15.529 15.529 15.529
40.00 19.537 19.537 19.537
41.00 21.043 21.043 21.043
42.00 19.087 19.087 19.087
43.00 16.800 16.800 16.800
44.00 15.270 15.270 15.270
45.00 14.772 14.772 14.772
46.00 14.979 14.979 14.979
47.00 15.670 15.670 15.670
48.00 16.307 16.307 16.307
49.00 16.629 16.629 16.629
50.00 16.533 16.533 16.533
51.00 15.908 15.908 15.908
52.00 14.875 14.875 14.875
53.00 13.692 13.692 13.692
54.00 12.465 12.465 12.465
55.00 11.316 11.316 11.316
56.00 10.418 10.418 10.418
57.00 9.942 9.942 9.942
58.00 9.920 9.920 9.920
59.00 10.475 10.475 10.475
60.00 11.497 11.497 11.497
61.00 13.033 13.033 13.033
62.00 14.630 14.630 14.630
63.00 16.395 16.395 16.395
64.00 18.452 18.452 18.452
65.00 20.322 20.322 20.322
66.00 21.511 21.511 21.511
67.00 22.285 22.285 22.285
68.00 22.153 22.153 22.153
69.00 21.094 21.094 21.094
70.00 19.734 19.734 19.734
71.00 18.040 18.040 18.040
72.00 16.104 16.104 16.104
73.00 14.491 14.491 14.491
74.00 12.681 12.681 12.681
75.00 11.181 11.181 11.181
76.00 9.892 9.892 9.892
77.00 8.872 8.872 8.872
78.00 8.486 8.486 8.486
79.00 8.673 8.673 8.673
80.00 9.364 9.364 9.364
81.00 10.711 10.711 10.711
82.00 12.302 12.302 12.302
83.00 14.428 14.428 14.428
84.00 16.554 16.554 16.554
85.00 18.875 18.875 18.875
86.00 21.127 21.127 21.127
87.00 23.128 23.128 23.128
88.00 23.903 23.903 23.903
89.00 23.833 23.833 23.833
90.00 23.505 23.505 23.505
91.00 22.376 22.376 22.376
92.00 20.316 20.316 20.316
93.00 18.382 18.382 18.382
94.00 16.431 16.431 16.431
95.00 14.422 14.422 14.422
96.00 12.678 12.678 12.678
97.00 11.055 11.055 11.055
98.00 9.575 9.575 9.575
99.00 8.282 8.282 8.282
100.00 7.443 7.443 7.443
101.00 7.243 7.243 7.243
102.00 7.644 7.644 7.644
103.00 8.613 8.613 8.613
104.00 10.243 10.243 10.243
105.00 12.368 12.368 12.368
106.00 14.686 14.686 14.686
107.00 17.333 17.333 17.333
108.00 20.227 20.227 20.227
109.00 23.025 23.025 23.025
110.00 25.001 25.001 25.001
111.00 26.452 26.452 26.452
112.00 26.959 26.959 26.959
113.00 26.422 26.422 26.422
114.00 25.087 25.087 25.087
115.00 22.919 22.919 22.919
116.00 20.820 20.820 20.820
117.00 18.339 18.339 18.339
118.00 16.327 16.327 16.327
119.00 14.246 14.246 14.246
120.00 12.301 12.301 12.301
121.00 10.550 10.550 10.550
122.00 8.936 8.936 8.936
123.00 7.526 7.526 7.526
124.00 6.471 6.471 6.471
125.00 5.939 5.939 5.939
126.00 6.254 6.254 6.254
127.00 7.319 7.319 7.319
128.00 9.017 9.017 9.017
129.00 11.188 11.188 11.188
130.00 13.788 13.788 13.788
131.00 16.668 16.668 16.668
132.00 19.838 19.838 19.838
133.00 23.158 23.158 23.158
134.00 26.231 26.231 26.231
135.00 28.634 28.634 28.634
136.00 29.633 29.633 29.633
137.00 29.549 29.549 29.549
138.00 27.985 27.985 27.985
139.00 26.207 26.207 26.207
140.00 23.958 23.958 23.958
141.00 21.238 21.238 21.238
142.00 18.792 18.792 18.792
143.00 16.459 16.459 16.459
144.00 14.439 14.439 14.439
145.00 12.395 12.395 12.395
146.00 10.540 10.540 10.540
147.00 8.770 8.770 8.770
148.00 7.135 7.135 7.135
149.00 5.853 5.853 5.853
150.00 4.973 4.973 4.973
151.00 4.930 4.930 4.930
152.00 5.801 5.801 5.801
153.00 7.393 7.393 7.393
154.00 9.687 9.687 9.687
155.00 12.354 12.354 12.354
156.00 15.571 15.571 15.571
157.00 19.038 19.038 19.038
158.00 22.650 22.650 22.650
159.00 26.778 26.778 26.778
160.00 29.939 29.939 29.939
161.00 31.738 31.738 31.738
162.00 32.188 32.188 32.188
163.00 30.926 30.926 30.926
164.00 28.821 28.821 28.821
165.00 26.059 26.059 26.059
166.00 23.477 23.477 23.477
167.00 20.745 20.745 20.745
168.00 18.319 18.319 18.319
169.00 16.057 16.057 16.057
170.00 14.056 14.056 14.056
171.00 12.087 12.087 12.087
172.00 10.237 10.237 10.237
173.00 8.514 8.514 8.514
174.00 6.872 6.872 6.872
175.00 5.486 5.486 5.486
176.00 4.372 4.372 4.372
177.00 4.219 4.219 4.219
178.00 5.157 5.157 5.157
179.00 6.958 6.958 6.958
180.00 9.441 9.441 9.441
181.00 12.501 12.501 12.501
182.00 15.913 15.913 15.913
183.00 19.822 19.822 19.822
184.00 24.282 24.282 24.282
185.00 28.329 28.329 28.329
186.00 31.696 31.696 31.696
187.00 33.838 33.838 33.838
188.00 33.803 33.803 33.803
189.00 32.117 32.117 32.117
190.00 29.939 29.939 29.939
191.00 26.823 26.823 26.823
192.00 24.214 24.214 24.214
193.00 21.480 21.480 21.480
194.00 18.926 18.926 18.926
195.00 16.592 16.592 16.592
196.00 14.618 14.618 14.618
197.00 12.783 12.783 12.783
198.00 10.833 10.833 10.833
199.00 8.971 8.971 8.971
200.00 7.384 7.384 7.384
201.00 5.778 5.778 5.778
202.00 4.429 4.429 4.429
203.00 3.704 3.704 3.704
204.00 4.281 4.281 4.281
205.00 5.968 5.968 5.968
206.00 8.409 8.409 8.409
207.00 11.424 11.424 11.424
208.00 15.320 15.320 15.320
209.00 19.227 19.227 19.227
210.00 23.805 23.805 23.805
211.00 28.812 28.812 28.812
212.00 32.680 32.680 32.680
213.00 35.421 35.421 35.421
214.00 35.000 35.000 35.000
215.00 33.699 33.699 33.699
216.00 30.886 30.886 30.886
217.00 27.966 27.966 27.966
218.00 25.159 25.159 25.159
219.00 22.104 22.104 22.104
220.00 19.652 19.652 19.652
221.00 17.513 17.513 17.513
222.00 15.436 15.436 15.436
223.00 13.481 13.481 13.481
224.00 11.666 11.666 11.666
225.00 9.968 9.968 9.968
226.00 8.246 8.246 8.246
227.00 6.558 6.558 6.558
228.00 5.030 5.030 5.030
229.00 3.785 3.785 3.785
230.00 3.337 3.337 3.337
231.00 4.295 4.295 4.295
232.00 6.347 6.347 6.347
233.00 9.213 9.213 9.213
234.00 12.647 12.647 12.647
235.00 16.813 16.813 16.813
236.00 21.441 21.441 21.441
237.00 26.717 26.717 26.717
238.00 31.456 31.456 31.456
239.00 34.723 34.723 34.723
240.00 36.338 36.338 36.338
241.00 35.105 35.105 35.105
242.00 32.804 32.804 32.804
243.00 29.099 29.099 29.099
244.00 26.338 26.338 26.338
245.00 23.453 23.453 23.453
246.00 20.982 20.982 20.982
247.00 18.585 18.585 18.585
248.00 16.618 16.619 16.618
249.00 14.839 14.839 14.839
250.00 13.078 13.078 13.078
